"λ,n (nm)",n,"λ,k (nm)",k,α (cm⁻¹),Reference,Details
400,2.4429,400,0.39473,124008.08681514993," Sarah Brittman and  Erik C. Garnett, 'Measuring n and k at the Microscale in Single Crystals of CH<sub>3</sub>NH<sub>3</sub>PbBr<sub>3</sub> Perovskite', <i>The Journal of Physical Chemistry C</i> <b>120</b>(1), pp.616-620, (2016)","Spin-coated on silica, heated to 150 &deg;C."
401,2.4414792,401,0.39275733,123080.65262559024,,
402,2.4405863,402,0.39060077,122100.34920582252,,
403,2.4422712,403,0.38754642,120844.96138928283,,
404,2.444784,404,0.38270208,119039.01416252804,,
405,2.4489775,405,0.3742236,116114.38148740004,,
406,2.450475,406,0.3623925,112166.46460256544,,
407,2.4489324,407,0.3467808,107070.66473572396,,
408,2.4420254,408,0.3331283,102603.27646890751,,
409,2.4313905,409,0.3208373,98576.04935722098,,
410,2.4203205,410,0.31328717,96021.52894984747,,
411,2.4090638,411,0.30776885,94100.66746119504,,
412,2.3997774,412,0.30451283,92879.15239338229,,
413,2.3910143,413,0.3018582,91846.53787368897,,
414,2.3837411,414,0.29982135,91006.43000477045,,
415,2.376731,415,0.2978935,90203.37649659287,,
416,2.3707879,416,0.296094,89442.95530500157,,
417,2.3649502,417,0.2943072,88690.00838547549,,
418,2.3597348,418,0.29250422,87935.79987521651,,
419,2.3545587,419,0.2907002,87184.87949566431,,
420,2.349835,420,0.2888715,86430.15068871086,,
421,2.345135,421,0.2870415,85678.61925656955,,
422,2.3407817,422,0.2852138,84931.3344817468,,
423,2.3364468,423,0.2833862,84187.61267600262,,
424,2.3323119,424,0.28156686,83449.84706324016,,
425,2.3281941,425,0.27974823,82715.76322096451,,
426,2.3242824,426,0.27795368,81992.2290259388,,
427,2.320399,427,0.27616242,81273.0519784149,,
428,2.3166397,428,0.2744158,80570.34217840804,,
429,2.3129077,429,0.27267894,79873.7673373102,,
430,2.3092928,430,0.27097595,79190.33058786188,,
431,2.3057215,431,0.26928547,78513.71269331552,,
432,2.3022408,432,0.26763368,77851.48175381495,,
433,2.2988136,433,0.26600456,77198.88882377694,,
434,2.2954412,434,0.26440263,76557.17603666546,,
435,2.2921233,435,0.26282784,75926.25391290791,,
436,2.288872,436,0.26127917,75305.754220921,,
437,2.2857382,437,0.25977686,74701.42562458802,,
438,2.2826188,438,0.25828585,74103.09852841965,,
439,2.2795594,439,0.2568429,73521.25446621393,,
440,2.2765,440,0.2554,72942.06942971211,,
441,2.2736042,441,0.25401992,72383.41174943012,,
442,2.270708,442,0.25263983,71827.27908888455,,
443,2.267868,443,0.25130847,71287.48019294726,,
444,2.265043,444,0.24999009,70753.7865057884,,
445,2.2622886,445,0.24870875,70232.95118053937,,
446,2.2595894,446,0.24745655,69722.66184418612,,
447,2.2569106,447,0.24622078,69219.27459589698,,
448,2.254279,448,0.24502341,68728.90578692142,,
449,2.2516503,449,0.2438273,68241.07389083604,,
450,2.2491722,450,0.24269252,67772.53670339502,,
451,2.2466938,451,0.24155773,67306.0744998516,,
452,2.2442696,452,0.24046129,66852.33824218804,,
453,2.241866,453,0.23937975,66404.73854465001,,
454,2.2395039,454,0.23832004,65965.1530279494,,
455,2.237206,455,0.23729451,65536.93972335734,,
456,2.2349122,456,0.23627084,65111.11712293768,,
457,2.2327182,457,0.23529194,64699.46872235364,,
458,2.230524,458,0.23431304,64289.61791303856,,
459,2.2284043,459,0.23337024,63891.43630069603,,
460,2.2263207,460,0.23244525,63499.85128363851,,
461,2.2242556,461,0.23153445,63113.83316034303,,
462,2.222239,462,0.23066202,62739.922726769,,
463,2.2202227,463,0.22978958,62367.62474293598,,
464,2.2182887,464,0.22895057,62005.98523682722,,
465,2.21637,465,0.22811791,61647.61722221571,,
466,2.2144766,466,0.22730492,61296.09157054211,,
467,2.2126217,467,0.22652265,60954.33773975948,,
468,2.210767,468,0.2257404,60614.049765677046,,
469,2.2090347,469,0.2249966,60285.515193405656,,
470,2.2073147,470,0.2242566,59959.394645023385,,
471,2.2056031,471,0.22353803,59640.37646249977,,
472,2.2039037,472,0.22285028,59330.915465968515,,
473,2.202204,473,0.22216253,59022.762972593824,,
474,2.2005906,474,0.22151281,58725.99295966512,,
475,2.1989892,475,0.22086827,58431.84290047048,,
476,2.1974163,476,0.22024147,58143.61211494259,,
477,2.1959047,477,0.21965232,57866.508583308554,,
478,2.194393,478,0.21906318,57590.56710962498,,
479,2.1928942,479,0.2185159,57326.75959353336,,
480,2.1914,480,0.21798334,57067.904962413835,,
481,2.1899185,481,0.21745966,56812.44659527103,,
482,2.1885223,482,0.21699551,56573.56847120087,,
483,2.187126,483,0.21653135,56335.67688876856,,
484,2.1857529,484,0.21610662,56109.00576728273,,
485,2.1844046,485,0.2157246,55894.33555122446,,
486,2.183056,486,0.21534258,55680.5487516932,,
487,2.18178,487,0.215039,55487.880298586904,,
488,2.1805208,488,0.21475382,55300.739610028264,,
489,2.179263,489,0.21448228,55117.86954381915,,
490,2.1780176,490,0.21432109,54964.045865580156,,
491,2.176772,491,0.21415992,54810.85387905318,,
492,2.1755457,492,0.21406,54673.928733937486,,
493,2.17435,493,0.21406,54563.02826997412,,
494,2.1731544,494,0.21406,54452.576795743415,,
495,2.1720357,495,0.214184,54374.0509831496,,
496,2.1709642,496,0.214384,54315.096729612436,,
497,2.1698928,497,0.214584,54256.379716532174,,
498,2.1688566,498,0.21500674,54254.104004521345,,
499,2.1678283,499,0.21547838,54264.15195314067,,
500,2.1668,500,0.21595,54274.15468341728,,
501,2.1659608,501,0.21676818,54371.043658285824,,
502,2.1651218,502,0.21758637,54467.5491245634,,
503,2.164308,503,0.21846972,54579.94969255023,,
504,2.1636505,504,0.21975346,54791.73456642369,,
505,2.1629932,505,0.2210372,55002.6806883214,,
506,2.16244,506,0.22247432,55250.88453157192,,
507,2.1622005,507,0.22437158,55612.15837493764,,
508,2.1619606,508,0.22626884,55972.009880337355,,
509,2.1619227,509,0.22842743,56394.96549834159,,
510,2.1622941,510,0.23111662,56947.00200113756,,
511,2.1626658,511,0.2338058,57496.875432225796,,
512,2.1634817,512,0.23686244,58134.78917307447,,
513,2.1650536,513,0.24054472,58923.471751408484,,
514,2.1666255,514,0.24422699,59709.08308111657,,
515,2.1689796,515,0.24831468,60590.56889060197,,
516,2.1726098,516,0.25306386,61629.733601943866,,
517,2.1762402,517,0.25781304,62664.8783337448,,
518,2.181185,518,0.26277697,63748.12343510312,,
519,2.1885705,519,0.26813972,64923.759112726344,,
520,2.1959562,520,0.27350244,66094.86586483718,,
521,2.205101,521,0.27836055,67139.7665204771,,
522,2.2185526,522,0.28198314,67883.23073258101,,
523,2.2320042,523,0.2856057,68623.84466106084,,
524,2.246706,524,0.28768077,68990.51859626373,,
525,2.266738,525,0.28315848,67776.65528149733,,
526,2.2867696,526,0.2786362,66567.40980564078,,
527,2.3066943,527,0.27331948,65173.31844030227,,
528,2.3245807,528,0.2529094,60192.29644422746,,
529,2.3424673,529,0.2324993,55230.10153835685,,
530,2.3603537,530,0.21208921,50286.63426729531,,
531,2.3620338,531,0.1840268,43550.82809368272,,
532,2.3615043,532,0.15492088,36593.85702974932,,
533,2.3609748,533,0.12581496,29662.990922903846,,
534,2.349229,534,0.107187815,25224.0039069919,,
535,2.3319592,535,0.09372186,22013.899578076347,,
536,2.3146892,536,0.08025591,18815.774422624152,,
537,2.303291,537,0.069761775,16324.996636229727,,
538,2.3003428,538,0.06354415,14842.366901011734,,
539,2.2973945,539,0.057326514,13365.236010264376,,
540,2.2935927,540,0.050755866,11811.426352013921,,
541,2.2835326,541,0.041596405,9662.030341127227,,
542,2.2734728,542,0.032436945,7520.5659126860655,,
543,2.2634127,543,0.023277486,5386.989245792947,,
544,2.2535641,544,0.018572403,4290.215060610959,,
545,2.2437718,545,0.015051394,3470.4843168209536,,
546,2.2339795,546,0.011530385,2653.756249748128,,
547,2.2250578,547,0.00894274,2054.4384853355455,,
548,2.2173386,548,0.007644027,1752.8773041636516,,
549,2.2096193,549,0.006345313,1452.4144776340845,,
550,2.2019,550,0.0050466,1153.0444716804548,,
551,2.1958017,551,0.004584692,1045.6068752211902,,
552,2.1897035,552,0.004122785,938.5587730674055,,
553,2.1836052,553,0.003660877,831.8975977501512,,
554,2.1781,554,0.003370717,764.5790443704135,,
555,2.1731,555,0.00322686,730.6291654171358,,
556,2.1681,556,0.003083003,696.8014083305967,,
557,2.1631322,557,0.002943656,664.1126078488701,,
558,2.1589348,558,0.002912557,655.9188297033354,,
559,2.1547377,559,0.002881459,647.7545922018027,,
560,2.1505406,560,0.00285036,639.6192882918716,,
561,2.1466255,561,0.002834254,634.8714113944732,,
562,2.1430044,562,0.002833753,633.6297229101806,,
563,2.1393833,563,0.002833252,632.3924453974131,,
564,2.1357622,564,0.00283275,631.1593325855665,,
565,2.132507,565,0.002831983,629.8716451604378,,
566,2.129293,566,0.002831186,628.5818472470863,,
567,2.1260786,567,0.00283039,627.296820514569,,
568,2.1229532,568,0.002827045,625.452380518856,,
569,2.1200805,569,0.002816449,622.0130395508132,,
570,2.1172078,570,0.002805853,618.5857664458163,,
571,2.1143353,571,0.002795256,615.170277723488,,
572,2.1116178,572,0.002778536,610.4215584150189,,
573,2.1090171,573,0.002757195,604.675989983561,,
574,2.1064167,574,0.002735855,598.9506598806205,,
575,2.103816,575,0.002714514,593.2450254237665,,
576,2.1013832,576,0.002686255,586.0499287270035,,
577,2.098982,577,0.002656677,578.5925092659252,,
578,2.096581,578,0.002627099,571.1608940244355,,
579,2.0941877,579,0.002597252,563.6965666819618,,
580,2.0919423,580,0.002562291,555.1499711696031,,
581,2.089697,581,0.00252733,546.632795951607,,
582,2.0874515,582,0.002492369,538.1448893769718,,
583,2.0852418,583,0.002456899,529.576387582306,,
584,2.0831597,584,0.002419624,520.6488344417501,,
585,2.0810773,585,0.002382349,511.75180285039255,,
586,2.0789952,586,0.002345074,502.8851365545687,,
587,2.0769534,587,0.002307731,494.03412307062536,,
588,2.074994,588,0.00227025,485.1837225722604,,
589,2.0730348,589,0.002232769,476.36337436760806,,
590,2.0710757,590,0.002195289,467.5731386377277,,
591,2.069168,591,0.002158484,458.9561744359466,,
592,2.0673387,592,0.002122695,450.5839876899856,,
593,2.065509,593,0.002086905,442.23982574973405,,
594,2.0636795,594,0.002051116,433.92397018589105,,
595,2.0618913,595,0.002016465,425.8764121156936,,
596,2.060163,596,0.001983453,418.20143446581454,,
597,2.0584345,597,0.00195044,410.55195814188784,,
598,2.0567062,598,0.001917428,402.928275490794,,
599,2.055003,599,0.001885649,395.58871757255025,,
600,2.0533445,600,0.001856064,388.7331351328324,,
601,2.0516858,601,0.001826479,381.90036661138316,,
602,2.0500274,602,0.001796893,375.090089573882,,
603,2.0484,603,0.001768294,368.5080888747535,,
604,2.0468616,604,0.0017425,362.5314701245175,,
605,2.0453231,605,0.001716707,356.5748165002429,,
606,2.0437846,606,0.001690914,350.6378217988206,,
607,2.0422504,607,0.001665505,344.7998861625745,,
608,2.0407538,608,0.001643557,339.6964866418473,,
609,2.0392575,609,0.00162161,334.6100533982098,,
610,2.037761,610,0.001599662,329.5400909788037,,
611,2.0362647,611,0.001577714,324.486724181065,,
612,2.0348494,612,0.001559105,320.1354780506611,,
613,2.0334442,613,0.001540908,315.8828876122506,,
614,2.0320392,614,0.001522711,311.64414925995874,,
615,2.030634,615,0.001504515,307.41939975386333,,
616,2.0292714,616,0.001488529,303.65920591268576,,
617,2.027935,617,0.001473897,300.1869683856101,,
618,2.0265987,618,0.001459266,296.7261712125154,,
619,2.025262,619,0.001444635,293.27655593658744,,
620,2.0239427,620,0.001430892,290.0180513084133,,
621,2.0226672,621,0.001419434,287.2324268377182,,
622,2.0213916,622,0.001407976,284.4557593588902,,
623,2.0201159,623,0.001396518,281.6880057403474,,
624,2.0188403,624,0.00138506,278.92912312699224,,
625,2.0176225,625,0.001376217,276.70484588450455,,
626,2.0164115,626,0.001367697,274.5525142196038,,
627,2.0152009,627,0.001359177,272.4070480464571,,
628,2.0139902,628,0.001350657,270.2684145681293,,
629,2.0128052,629,0.001343203,268.34955021175017,,
630,2.0116549,630,0.001337163,266.71882269537065,,
631,2.0105045,631,0.001331123,265.09326388744256,,
632,2.0093539,632,0.001325083,263.47284925295725,,
633,2.0082035,633,0.001319044,261.8577529328086,,
634,2.007089,634,0.001314991,260.641392122189,,
635,2.0059779,635,0.001311135,259.46784780248527,,
636,2.0048666,636,0.001307278,258.2977962892803,,
637,2.0037556,637,0.001303422,257.1316156814641,,
638,2.0026567,638,0.001300155,256.085103230598,,
639,2.0015836,639,0.001298137,255.28749061365218,,
640,2.0005107,640,0.00129612,254.4925668856752,,
641,1.9994378,641,0.001294103,253.7001234189399,,
642,1.9983648,642,0.001292086,252.91014862344062,,
643,1.9973428,643,0.00129105,252.31435119235474,,
644,1.9963471,644,0.001290521,251.8193349629412,,
645,1.9953513,645,0.001289991,251.325658840121,,
646,1.9943556,646,0.001289461,250.83351112634972,,
647,1.9933598,647,0.001288932,250.34307895992578,,
648,1.9923776,648,0.001289567,250.07988972295237,,
649,1.9913964,649,0.001290277,249.83203354674134,,
650,1.9904152,650,0.001290987,249.58494000491856,,
651,1.989434,651,0.001291697,249.33860558303996,,
652,1.9884614,652,0.001292546,249.1198170568634,,
653,1.9875374,653,0.001294189,249.05449646289256,,
654,1.9866134,654,0.001295832,248.98937562608987,,
655,1.9856893,655,0.001297475,248.92445363153692,,
656,1.9847653,656,0.001299117,248.8595380093666,,
657,1.9838501,657,0.00130097,248.8351777498151,,
658,1.9829576,658,0.001303364,248.9142107813621,,
659,1.9820651,659,0.001305757,248.9928132669771,,
660,1.9811726,660,0.001308151,249.07136796279647,,
661,1.9802802,661,0.001310544,249.14949486270396,,
662,1.9794002,662,0.001313118,249.26174393332462,,
663,1.9785436,663,0.001316026,249.43696009249842,,
664,1.977687,664,0.001318935,249.61183774472613,,
665,1.9768305,665,0.001321843,249.78600048114842,,
666,1.9759738,666,0.001324751,249.9596402063503,,
667,1.9751277,667,0.001327783,250.15612104116443,,
668,1.9743025,668,0.001331064,250.39885532082903,,
669,1.9734774,669,0.001334345,250.6408639374752,,
670,1.9726523,670,0.001337626,250.8821501403403,,
671,1.9718271,671,0.001340906,251.12252988104177,,
672,1.9710139,672,0.001344237,251.37173118354664,,
673,1.9702388,673,0.001347726,251.64969394662452,,
674,1.9694636,674,0.001351214,251.9266454497139,,
675,1.9686884,675,0.001354702,252.20277635575704,,
676,1.9679132,676,0.001358191,252.47827619951326,,
677,1.967139,677,0.001361683,252.753519014364,,
678,1.9663771,678,0.001365226,253.03740248317283,,
679,1.9656153,679,0.001368769,253.32044977092474,,
680,1.9648533,680,0.001372312,253.60266456665389,,
681,1.9640914,681,0.001375855,253.88405053772598,,
682,1.9633296,682,0.001379398,254.16461132999729,,
683,1.9625927,683,0.001382943,254.4447185436855,,
684,1.961861,684,0.001386489,254.72419044930172,,
685,1.9611293,685,0.001390035,255.0028463785511,,
686,1.9603976,686,0.001393581,255.28068989984362,,
687,1.9596659,687,0.001397127,255.55772456081203,,
688,1.958958,688,0.001400619,255.8240907487374,,
689,1.9582741,689,0.001404057,256.0798349156066,,
690,1.9575902,690,0.001407495,256.3348377950357,,
691,1.9569063,691,0.001410933,256.58910260534924,,
692,1.9562224,692,0.001414371,256.84263254626876,,
693,1.9555395,693,0.001417795,257.092892138317,,
694,1.9548668,694,0.001421067,257.31490763451797,,
695,1.954194,695,0.00142434,257.53646504829277,,
696,1.9535213,696,0.001427613,257.7573858028325,,
697,1.9528486,697,0.001430885,257.97749234615964,,
698,1.9521759,698,0.001434158,258.19714824567507,,
699,1.9515201,699,0.001437294,258.39154629177045,,
700,1.950876,700,0.001440335,258.5683345547574,,
701,1.950232,701,0.001443377,258.74479769246653,,
702,1.9495881,702,0.001446418,258.92057907806503,,
703,1.948944,703,0.001449459,259.09586037437316,,
704,1.9483,704,0.0014525,259.2706437124531,,
705,1.9476838,705,0.001455264,259.3955569607771,,
706,1.9470676,706,0.001458028,259.52011634720793,,
707,1.9464514,707,0.001460792,259.644323373281,,
708,1.9458352,708,0.001463556,259.76817953204875,,
709,1.945219,709,0.00146632,259.8916863081402,,
710,1.944606,710,0.001468999,259.99980093131,,
711,1.9439993,711,0.001471494,260.0750908692804,,
712,1.9433928,712,0.00147399,260.1503458126303,,
713,1.9427861,713,0.001476486,260.22538966216996,,
714,1.9421796,714,0.001478981,260.30004730525974,,
715,1.9415729,715,0.001481477,260.3746718692165,,
716,1.9409903,716,0.001483792,260.4173210421959,,
717,1.9404272,717,0.001485959,260.4339122976645,,
718,1.939864,718,0.001488126,260.45045733793677,,
719,1.9393009,719,0.001490294,260.4671311315131,,
720,1.9387378,720,0.001492461,260.4835840760709,,
721,1.9381746,721,0.001494628,260.4999913813929,,
722,1.9376179,722,0.001496573,260.47771425821816,,
723,1.9370643,723,0.001498419,260.43829169567715,,
724,1.9365106,724,0.001500265,260.3989780352426,,
725,1.9359568,725,0.00150211,260.3595994970353,,
726,1.9354032,726,0.001503956,260.32050253015376,,
727,1.9348495,727,0.001505802,260.2815131202651,,
728,1.9343145,728,0.001507408,260.20120322870787,,
729,1.9337865,729,0.001508926,260.1059443846712,,
730,1.9332584,730,0.001510445,260.0111186658321,,
731,1.9327303,731,0.001511963,259.9163804815094,,
732,1.9322023,732,0.001513481,259.8219011446849,,
733,1.9316742,733,0.001514999,259.7276795959554,,
734,1.9311525,734,0.001516293,259.5953650948026,,
735,1.9306339,735,0.001517476,259.44443284891565,,
736,1.9301152,736,0.001518659,259.29391074500114,,
737,1.9295965,737,0.001519842,259.1437971135532,,
738,1.929078,738,0.001521025,258.9940902941147,,
739,1.9285593,739,0.001522208,258.8447886352158,,
740,1.9280604,740,0.001523231,258.6687199632559,,
741,1.9275812,741,0.001524094,258.4659926467089,,
742,1.927102,742,0.001524957,258.26381176497733,,
743,1.9266226,743,0.001525819,258.0620059815734,,
744,1.9261434,744,0.001526682,257.8609115896652,,
745,1.9256642,745,0.001527544,257.660188372358,,
746,1.9251834,746,0.001528332,257.44753798639124,,
747,1.9246975,747,0.00152888,257.19508306400877,,
748,1.9242116,748,0.001529429,256.9434711543948,,
749,1.9237257,749,0.001529977,256.69236333037924,,
750,1.9232398,750,0.001530526,256.4420926788358,,
751,1.9227539,751,0.001531075,256.1924885270302,,
752,1.922268,752,0.001531623,255.94338111006167,,
753,1.9218152,753,0.001531912,255.65171235835578,,
754,1.9213676,754,0.001532159,255.35381742872593,,
755,1.92092,755,0.001532406,255.05671162473755,,
756,1.9204725,756,0.001532653,254.76039181493954,,
757,1.920025,757,0.0015329,254.46485488442772,,
758,1.9195775,758,0.001533147,254.17009773473512,,
759,1.9191331,759,0.001533277,253.85674619858744,,
760,1.9186937,760,0.001533216,253.51263799822783,,
761,1.9182543,761,0.001533156,253.16959928552498,,
762,1.9178149,762,0.001533095,252.82729602389733,,
763,1.9173754,763,0.001533035,252.48605471538815,,
764,1.916936,764,0.001532974,252.14554222744292,,
765,1.9164966,765,0.001532913,251.80591996822432,,
766,1.9160745,766,0.001532644,251.4330616693721,,
767,1.9156573,767,0.001532316,251.0515091826909,,
768,1.9152399,768,0.001531989,250.67111394689448,,
769,1.9148227,769,0.001531661,250.2915446236669,,
770,1.9144053,770,0.001531333,249.91296119478537,,
771,1.9139881,771,0.001531005,249.53535982408516,,
772,1.9135714,772,0.001530658,249.15564393567078,,
773,1.9131614,773,0.001530058,248.7357812349957,,
774,1.9127514,774,0.001529457,248.31684109465033,,
775,1.9123415,775,0.001528857,247.89914423686866,,
776,1.9119315,776,0.001528257,247.48252391738023,,
777,1.9115216,777,0.001527657,247.06697597966655,,
778,1.9111116,778,0.001527056,246.6523347671062,,
779,1.9107033,779,0.0015264,246.22988582487602,,
780,1.9103004,780,0.001525565,245.77968187557502,,
781,1.9098976,781,0.001524731,245.33079171834157,,
782,1.9094946,782,0.001523896,244.8828889224999,,
783,1.9090918,783,0.001523062,244.4362906851483,,
784,1.9086889,784,0.001522227,243.990671443675,,
785,1.9082861,785,0.001521393,243.54634761900314,,
786,1.9078935,786,0.001520493,243.0926024750486,,
787,1.9075263,787,0.001519433,242.61446253732655,,
788,1.9071591,788,0.001518374,242.1376956244543,,
